"Photon energy (eV)"	"Reflectivity"
90	0.839628137
99.91	0.854925937
109.82	0.862366083
119.73	0.861698137
129.64	0.861289999
139.55	0.8524174
149.46	0.826976886
159.37	0.787040583
169.28	0.726286757
179.19	0.643873965
189.1	0.563810147
199.01	0.495430266
208.92	0.445389535
218.83	0.415702893
228.74	0.392740729
238.65	0.377801648
248.56	0.365790607
258.47	0.358052982
268.38	0.351345355
278.29	0.348624045
288.2	0.344864417
298.11	0.340600833
308.02	0.337098419
317.93	0.334673877
327.84	0.331854847
337.75	0.329280608
347.66	0.327629005
357.57	0.327761494
367.48	0.326832235
377.39	0.325345206
387.3	0.323809737
397.21	0.322712757
407.12	0.322613237
417.03	0.322017484
426.94	0.320833867
436.85	0.319463825
446.76	0.318169608
456.67	0.317224942
466.58	0.315998309
476.49	0.314507427
486.4	0.31287963
496.31	0.311178468
506.22	0.309475433
516.13	0.307827028
526.04	0.306150391
535.95	0.304442173
545.86	0.302741473
555.77	0.301079235
565.68	0.299531654
575.59	0.298101866
585.5	0.296676298
595.41	0.295252163
605.32	0.293869958
615.23	0.292560974
625.14	0.291358753
635.05	0.29031887
644.96	0.289605962
654.87	0.289672559
664.78	0.290032564
674.69	0.290089754
684.6	0.289826173
694.51	0.289424562
704.42	0.288920265
714.33	0.288337415
724.24	0.287649844
734.15	0.286883847
744.06	0.286129167
753.97	0.285394711
763.88	0.284683599
773.79	0.284003489
783.7	0.283372211
793.61	0.282992443
803.52	0.282858309
813.43	0.282866466
823.34	0.282710321
833.25	0.282517555
843.16	0.282327158
853.07	0.282148109
862.98	0.282001419
872.89	0.282282023
882.8	0.282908745
892.71	0.283943845
902.62	0.284582751
912.53	0.285122973
922.44	0.285588807
932.35	0.285984732
942.26	0.286394449
952.17	0.28681951
962.08	0.287499688
971.99	0.288190525
981.9	0.288872563
991.81	0.289449334
1001.72	0.289996314
1011.63	0.290516918
1021.54	0.291206944
1031.45	0.29202094
1041.36	0.293551712
1051.27	0.29513712
1061.18	0.296674462
1071.09	0.298050029
1081	0.29927717
1090.91	0.300341748
1100.82	0.301360786
1110.73	0.302216987
1120.64	0.303044097
1130.55	0.303759562
1140.46	0.304427491
1150.37	0.305017516
1160.28	0.305544594
1170.19	0.306014292
1180.1	0.306406407
1190.01	0.306756905
1199.92	0.306992507
1209.83	0.30718786
1219.74	0.307097255
1229.65	0.306928469
1239.56	0.30642622
1249.47	0.3058437
1259.38	0.305326385
1269.29	0.304824458
1279.2	0.304349358
1289.11	0.303881259
1299.02	0.303478179
1308.93	0.303104952
1318.84	0.302974402
1328.75	0.303025813
1338.66	0.303049869
1348.57	0.303034175
1358.48	0.302982059
1368.39	0.302825584
1378.3	0.302661597
1388.21	0.302414376
1398.12	0.302161305
1408.03	0.30175171
1417.94	0.301296262
1427.85	0.300593593
1437.76	0.299647775
1447.67	0.298716455
1457.58	0.29786561
1467.49	0.297008909
1477.4	0.296431023
1487.31	0.29590834
1497.22	0.296026866
1507.13	0.297023154
1517.04	0.298007905
1526.95	0.298541472
1536.86	0.299055909
1546.77	0.299161469
1556.68	0.298870656
1566.59	0.298565813
1576.5	0.297309405
1586.41	0.29603524
1596.32	0.294781615
1606.23	0.293557643
1616.14	0.292323532
1626.05	0.291189514
1635.96	0.29006649
1645.87	0.289015877
1655.78	0.288302194
1665.69	0.287570056
1675.6	0.286480947
1685.51	0.285051575
1695.42	0.283605308
1705.33	0.281790836
1715.24	0.279866875
1725.15	0.277934083
1735.06	0.27633161
1744.97	0.274709663
1754.88	0.272870029
1764.79	0.270227834
1774.7	0.267570139
1784.61	0.264838191
1794.52	0.261978828
1804.43	0.259108117
1814.34	0.25663761
1824.25	0.254684131
1834.16	0.252706754
1844.07	0.250325943
1853.98	0.247510694
1863.89	0.244672623
1873.8	0.241607041
1883.71	0.238298134
1893.62	0.234973297
1903.53	0.231951482
1913.44	0.229330473
1923.35	0.226681213
1933.26	0.223965976
1943.17	0.221142893
1953.08	0.218277961
1962.99	0.215203485
1972.9	0.211315426
1982.81	0.207390009
1992.72	0.203426124
2002.63	0.199035013
2012.54	0.194597889
2022.45	0.190124725
2032.36	0.185459567
2042.27	0.180689057
2052.18	0.175870605
2062.09	0.170743912
2072	0.165199797
2081.91	0.159602331
2091.82	0.153891891
2101.73	0.147159611
2111.64	0.140377252
2121.55	0.133551156
2131.46	0.125533454
2141.37	0.116886502
2151.28	0.108277205
2161.19	0.099209018
2171.1	0.087888806
2181.01	0.076946934
2190.92	0.066517266
2200.83	0.046813265
2210.74	0.028392549
2220.65	0.01639784
2230.56	0.009204656
2240.47	0.006176729
2250.38	0.004212437
2260.29	0.002958656
2270.2	0.002395407
2280.11	0.002241161
2290.02	0.002098207
2299.93	0.001965724
2309.84	0.001845628
2319.75	0.001743045
2329.66	0.001657387
2339.57	0.001587923
2349.48	0.00184936
2359.39	0.002146142
2369.3	0.002470626
2379.21	0.002806653
2389.12	0.003077722
2399.03	0.003365377
2408.94	0.003669718
2418.85	0.003940387
2428.76	0.004086862
2438.67	0.004236377
2448.58	0.004388718
2458.49	0.004522208
2468.4	0.004613228
2478.31	0.004704064
2488.22	0.004794653
2498.13	0.004878588
2508.04	0.004948976
2517.95	0.005018856
2527.86	0.005088205
2537.77	0.005146044
2547.68	0.005170858
2557.59	0.005194824
2567.5	0.005217868
2577.41	0.005227812
2587.32	0.005144936
2597.23	0.005062229
2607.14	0.004979836
2617.05	0.004897628
2626.96	0.004807723
2636.87	0.004717888
2646.78	0.004628886
2656.69	0.004540724
2666.6	0.00436952
2676.51	0.004157684
2686.42	0.003954011
2696.33	0.003758277
2706.24	0.003549893
2716.15	0.003308812
2726.06	0.003086651
2735.97	0.002881849
2745.88	0.00269298
2755.79	0.002719761
2765.7	0.002772695
2775.61	0.002824537
2785.52	0.002875184
2795.43	0.002933446
2805.34	0.00300507
2815.25	0.003077337
2825.16	0.003150251
2835.07	0.003223788
2844.98	0.003231307
2854.89	0.003226028
2864.8	0.003220063
2874.71	0.003213416
2884.62	0.003206145
2894.53	0.003198197
2904.44	0.003189574
2914.35	0.003180333
2924.26	0.003170427
2934.17	0.003150895
2944.08	0.003122347
2953.99	0.003093361
2963.9	0.003063978
2973.81	0.003034258
2983.72	0.002989748
2993.63	0.00294005
3003.54	0.002890456
3013.45	0.002841076
3023.36	0.002791881
3033.27	0.002735393
3043.18	0.00267832
3053.09	0.002621803
3063	0.002565859
3072.91	0.0025105
3082.82	0.00243393
3092.73	0.002357542
3102.64	0.002282855
3112.55	0.002209891
3122.46	0.002138603
3132.37	0.002058735
3142.28	0.001980772
3152.19	0.001905592
3162.1	0.001833046
3172.01	0.001763149
3181.92	0.001722002
3191.83	0.001687209
3201.74	0.001652875
3211.65	0.001619016
3221.56	0.001585621
3231.47	0.001558971
3241.38	0.00153593
3251.29	0.001512877
3261.2	0.001489851
3271.11	0.001466844
3281.02	0.001439423
3290.93	0.001405078
3300.84	0.001371245
3310.75	0.001337917
3320.66	0.001305119
3330.57	0.001272574
3340.48	0.001231829
3350.39	0.001192107
3360.3	0.001153393
3370.21	0.0011157
3380.12	0.001078983
3390.03	0.001040416
3399.94	0.001001205
3409.85	0.000963347
3419.76	0.000926794
3429.67	0.000891511
3439.58	0.000858376
3449.49	0.000838079
3459.4	0.00081815
3469.31	0.000798584
3479.22	0.000779365
3489.13	0.000760517
3499.04	0.000742808
3508.95	0.000726303
3518.86	0.000710005
3528.77	0.000693925
3538.68	0.000678061
3548.59	0.000662435
3558.5	0.000641253
3568.41	0.000618834
3578.32	0.000597096
3588.23	0.000576018
3598.14	0.0005556
3608.05	0.000535816
3617.96	0.000516391
3627.87	0.00049759
3637.78	0.000479416
3647.69	0.000461835
3657.6	0.000444849
3667.51	0.000428407
3677.42	0.000412203
3687.33	0.000396576
3697.24	0.000381493
3707.15	0.000366957
3717.06	0.000352935
3726.97	0.000339407
3736.88	0.000326249
3746.79	0.000313575
3756.7	0.000301374
3766.61	0.000289624
3776.52	0.00027832
3786.43	0.000267436
3796.34	0.000256887
3806.25	0.000246738
3816.16	0.000236975
3826.07	0.000227593
3835.98	0.000218569
3845.89	0.000209895
3855.8	0.000201361
3865.71	0.000193122
3875.62	0.000185217
3885.53	0.000177631
3895.44	0.000170355
3905.35	0.000163374
3915.26	0.000156609
3925.17	0.000150068
3935.08	0.0001438
3944.99	0.000137794
3954.9	0.00013204
3964.81	0.000126525
3974.72	0.000121235
3984.63	0.000116144
3994.54	0.000111267
4004.45	0.000106596
4014.36	0.000102123
4024.27	9.7838E-05
4034.18	9.37345E-05
4044.09	8.97631E-05
4054	8.59416E-05
4063.91	8.22846E-05
4073.82	7.87836E-05
4083.73	7.54334E-05
4093.64	7.22269E-05
4103.55	6.91609E-05
4113.46	6.62584E-05
4123.37	6.3479E-05
4133.28	6.08174E-05
4143.19	5.82686E-05
4153.1	5.58274E-05
4163.01	5.34893E-05
4172.92	5.11714E-05
4182.83	4.88381E-05
4192.74	4.66118E-05
4202.65	4.44871E-05
4212.56	4.24595E-05
4222.47	4.05242E-05
4232.38	3.86774E-05
4242.29	3.68831E-05
4252.2	3.51519E-05
4262.11	3.35031E-05
4272.02	3.19325E-05
4281.93	3.04364E-05
4291.84	2.90112E-05
4301.75	2.76535E-05
4311.66	2.64318E-05
4321.57	2.52973E-05
4331.48	2.42116E-05
4341.39	2.31724E-05
4351.3	2.21778E-05
4361.21	2.12259E-05
4371.12	2.03148E-05
4381.03	1.94216E-05
4390.94	1.85565E-05
4400.85	1.773E-05
4410.76	1.69403E-05
4420.67	1.61859E-05
4430.58	1.5465E-05
4440.49	1.47763E-05
4450.4	1.41183E-05
4460.31	1.34896E-05
4470.22	1.2889E-05
4480.13	1.23151E-05
4490.04	1.17667E-05
4499.95	1.12428E-05
4509.86	1.07421E-05
4519.77	1.02621E-05
4529.68	9.79899E-06
4539.59	9.35682E-06
4549.5	8.93464E-06
4559.41	8.53164E-06
4569.32	8.14691E-06
4579.23	7.7796E-06
4589.14	7.42904E-06
4599.05	7.09257E-06
4608.96	6.77126E-06
4618.87	6.46462E-06
4628.78	6.17208E-06
4638.69	5.89294E-06
4648.6	5.62659E-06
4658.51	5.37249E-06
4668.42	5.12918E-06
4678.33	4.89584E-06
4688.24	4.67334E-06
4698.15	4.46114E-06
4708.06	4.25881E-06
4717.97	4.06592E-06
4727.88	3.88197E-06
4737.79	3.70655E-06
4747.7	3.53819E-06
4757.61	3.37736E-06
4767.52	3.22411E-06
4777.43	3.07802E-06
4787.34	2.9388E-06
4797.25	2.8061E-06
4807.16	2.67964E-06
4817.07	2.55909E-06
4826.98	2.44379E-06
4836.89	2.33391E-06
4846.8	2.2292E-06
4856.71	2.1294E-06
4866.62	2.03429E-06
4876.53	1.94362E-06
4886.44	1.8572E-06
4896.35	1.77471E-06
4906.26	1.6956E-06
4916.17	1.62022E-06
4926.08	1.54835E-06
4935.99	1.47986E-06
4945.9	1.41456E-06
4955.81	1.35232E-06
4965.72	1.29297E-06
4975.63	1.23637E-06
4985.54	1.18236E-06
4995.45	1.13086E-06
5005.36	1.08174E-06
5015.27	1.03489E-06
5025.18	9.90202E-07
5035.09	9.47564E-07
5045	9.0688E-07
5054.91	8.68102E-07
5064.82	8.31548E-07
5074.73	7.96641E-07
5084.64	7.63296E-07
5094.55	7.31444E-07
5104.46	7.01012E-07
5114.37	6.7193E-07
5124.28	6.44148E-07
5134.19	6.17588E-07
5144.1	5.91653E-07
5154.01	5.66778E-07
5163.92	5.43017E-07
5173.83	5.20319E-07
5183.74	4.98645E-07
5193.65	4.77934E-07
5203.56	4.58143E-07
5213.47	4.39234E-07
5223.38	4.21414E-07
5233.29	4.04679E-07
5243.2	3.88659E-07
5253.11	3.73323E-07
5263.02	3.58639E-07
5272.93	3.44577E-07
5282.84	3.3111E-07
5292.75	3.1821E-07
5302.66	3.05851E-07
5312.57	2.94156E-07
5322.48	2.82952E-07
5332.39	2.72209E-07
5342.3	2.61904E-07
5352.21	2.5202E-07
5362.12	2.42536E-07
5372.03	2.33438E-07
5381.94	2.24707E-07
5391.85	2.16212E-07
5401.76	2.07757E-07
5411.67	1.99658E-07
5421.58	1.91899E-07
5431.49	1.84465E-07
5441.4	1.7734E-07
5451.31	1.70512E-07
5461.22	1.63968E-07
5471.13	1.57694E-07
5481.04	1.51692E-07
5490.95	1.45953E-07
5500.86	1.40447E-07
5510.77	1.35166E-07
5520.68	1.30098E-07
5530.59	1.25236E-07
5540.5	1.20569E-07
5550.41	1.16089E-07
5560.32	1.11789E-07
5570.23	1.07652E-07
5580.14	1.03672E-07
5590.05	9.98503E-08
5599.96	9.61803E-08
5609.87	9.26562E-08
5619.78	8.92712E-08
5629.69	8.60194E-08
5639.6	8.28953E-08
5649.51	7.98936E-08
5659.42	7.70027E-08
5669.33	7.42177E-08
5679.24	7.15412E-08
5689.15	6.89685E-08
5699.06	6.64957E-08
5708.97	6.41185E-08
5718.88	6.18329E-08
5728.79	5.96351E-08
5738.7	5.75214E-08
5748.61	5.54947E-08
5758.52	5.35672E-08
5768.43	5.17118E-08
5778.34	4.99258E-08
5788.25	4.82061E-08
5798.16	4.65504E-08
5808.07	4.49561E-08
5817.98	4.34205E-08
5827.89	4.19416E-08
5837.8	4.0517E-08
5847.71	3.91366E-08
5857.62	3.78051E-08
5867.53	3.65228E-08
5877.44	3.52873E-08
5887.35	3.40967E-08
5897.26	3.29497E-08
5907.17	3.18441E-08
5917.08	3.07785E-08
5926.99	2.97514E-08
5936.9	2.87582E-08
5946.81	2.77941E-08
5956.72	2.6865E-08
5966.63	2.59693E-08
5976.54	2.51057E-08
5986.45	2.42731E-08
5996.36	2.34702E-08
6006.27	2.26959E-08
6016.18	2.19492E-08
6026.09	2.12289E-08
6036	2.05363E-08
6045.91	1.98695E-08
6055.82	1.9226E-08
6065.73	1.8605E-08
6075.64	1.80055E-08
6085.55	1.7427E-08
6095.46	1.68683E-08
6105.37	1.6329E-08
6115.28	1.58083E-08
6125.19	1.53054E-08
6135.1	1.48151E-08
6145.01	1.43405E-08
6154.92	1.38823E-08
6164.83	1.34397E-08
6174.74	1.30124E-08
6184.65	1.25997E-08
6194.56	1.22011E-08
6204.47	1.1816E-08
6214.38	1.1444E-08
6224.29	1.10846E-08
6234.2	1.07368E-08
6244.11	1.04005E-08
6254.02	1.00755E-08
6263.93	9.76145E-09
6273.84	9.45794E-09
6283.75	9.16454E-09
6293.66	8.88096E-09
6303.57	8.6068E-09
6313.48	8.34175E-09
6323.39	8.08547E-09
6333.3	7.83737E-09
6343.21	7.59727E-09
6353.12	7.3651E-09
6363.03	7.14055E-09
6372.94	6.92335E-09
6382.85	6.71325E-09
6392.76	6.51001E-09
6402.67	6.31338E-09
6412.58	6.12314E-09
6422.49	5.93904E-09
6432.4	5.76077E-09
6442.31	5.58793E-09
6452.22	5.42065E-09
6462.13	5.25876E-09
6472.04	5.10207E-09
6481.95	4.9504E-09
6491.86	4.80354E-09
6501.77	4.66139E-09
6511.68	4.52375E-09
6521.59	4.39047E-09
6531.5	4.26143E-09
6541.41	4.13619E-09
6551.32	4.01486E-09
6561.23	3.89734E-09
6571.14	3.78353E-09
6581.05	3.67328E-09
6590.96	3.56648E-09
6600.87	3.46301E-09
6610.78	3.36277E-09
6620.69	3.26564E-09
6630.6	3.17153E-09
6640.51	3.08031E-09
6650.42	2.99171E-09
6660.33	2.90586E-09
6670.24	2.82265E-09
6680.15	2.742E-09
6690.06	2.66381E-09
6699.97	2.58803E-09
6709.88	2.51456E-09
6719.79	2.44333E-09
6729.7	2.37426E-09
6739.61	2.30729E-09
6749.52	2.24229E-09
6759.43	2.17917E-09
6769.34	2.11795E-09
6779.25	2.05858E-09
6789.16	2.001E-09
6799.07	1.94513E-09
6808.98	1.89094E-09
6818.89	1.83838E-09
6828.8	1.78738E-09
6838.71	1.73789E-09
6848.62	1.68989E-09
6858.53	1.64327E-09
6868.44	1.59796E-09
6878.35	1.55399E-09
6888.26	1.51133E-09
6898.17	1.46992E-09
6908.08	1.42972E-09
6917.99	1.3907E-09
6927.9	1.35282E-09
6937.81	1.31605E-09
6947.72	1.28036E-09
6957.63	1.24569E-09
6967.54	1.21203E-09
6977.45	1.17928E-09
6987.36	1.14749E-09
6997.27	1.1166E-09
7007.18	1.08661E-09
7017.09	1.05749E-09
7027	1.02919E-09
7036.91	1.00172E-09
7046.82	9.75022E-10
7056.73	9.49095E-10
7066.64	9.239E-10
7076.55	8.99426E-10
7086.46	8.75607E-10
7096.37	8.52457E-10
7106.28	8.29961E-10
7116.19	8.08103E-10
7126.1	7.86855E-10
7136.01	7.66211E-10
7145.92	7.46144E-10
7155.83	7.26643E-10
7165.74	7.07685E-10
7175.65	6.89258E-10
7185.56	6.71347E-10
7195.47	6.53925E-10
7205.38	6.36959E-10
7215.29	6.20465E-10
7225.2	6.04429E-10
7235.11	5.88836E-10
7245.02	5.73672E-10
7254.93	5.58928E-10
7264.84	5.44591E-10
7274.75	5.30645E-10
7284.66	5.17083E-10
7294.57	5.03889E-10
7304.48	4.9106E-10
7314.39	4.78568E-10
7324.3	4.66403E-10
7334.21	4.54569E-10
7344.12	4.43057E-10
7354.03	4.31858E-10
7363.94	4.20961E-10
7373.85	4.10358E-10
7383.76	4.00041E-10
7393.67	3.90001E-10
7403.58	3.80231E-10
7413.49	3.70723E-10
7423.4	3.61468E-10
7433.31	3.52455E-10
7443.22	3.43674E-10
7453.13	3.35126E-10
7463.04	3.26806E-10
7472.95	3.18706E-10
7482.86	3.10822E-10
7492.77	3.03147E-10
7502.68	2.95673E-10
7512.59	2.88397E-10
7522.5	2.81312E-10
7532.41	2.74413E-10
7542.32	2.67697E-10
7552.23	2.6115E-10
7562.14	2.54768E-10
7572.05	2.48552E-10
7581.96	2.42498E-10
7591.87	2.36602E-10
7601.78	2.30859E-10
7611.69	2.25265E-10
7621.6	2.19816E-10
7631.51	2.14508E-10
7641.42	2.09338E-10
7651.33	2.043E-10
7661.24	1.99392E-10
7671.15	1.94609E-10
7681.06	1.89941E-10
7690.97	1.85392E-10
7700.88	1.80959E-10
7710.79	1.76641E-10
7720.7	1.72432E-10
7730.61	1.6833E-10
7740.52	1.64332E-10
7750.43	1.60436E-10
7760.34	1.56639E-10
7770.25	1.52937E-10
7780.16	1.49329E-10
7790.07	1.45812E-10
7799.98	1.42381E-10
7809.89	1.39032E-10
7819.8	1.35768E-10
7829.71	1.32586E-10
7839.62	1.29484E-10
7849.53	1.26458E-10
7859.44	1.23509E-10
7869.35	1.20633E-10
7879.26	1.17828E-10
7889.17	1.15094E-10
7899.08	1.12427E-10
7908.99	1.09826E-10
7918.9	1.07289E-10
7928.81	1.04811E-10
7938.72	1.02394E-10
7948.63	1.00036E-10
7958.54	9.77355E-11
7968.45	9.54922E-11
7978.36	9.33034E-11
7988.27	9.11687E-11
7998.18	8.90858E-11
8008.09	8.70538E-11
8018	8.50712E-11
8027.91	8.31372E-11
8037.82	8.12496E-11
8047.73	7.94081E-11
8057.64	7.76082E-11
8067.55	7.58513E-11
8077.46	7.41368E-11
8087.37	7.24637E-11
8097.28	7.08311E-11
8107.19	6.9238E-11
8117.1	6.76826E-11
8127.01	6.61646E-11
8136.92	6.46832E-11
8146.83	6.32369E-11
8156.74	6.18253E-11
8166.65	6.04473E-11
8176.56	5.91022E-11
8186.47	5.77868E-11
8196.38	5.65023E-11
8206.29	5.52484E-11
8216.2	5.4024E-11
8226.11	5.28284E-11
8236.02	5.16611E-11
8245.93	5.05215E-11
8255.84	4.94085E-11
8265.75	4.83217E-11
8275.66	4.72606E-11
8285.57	4.62245E-11
8295.48	4.52122E-11
8305.39	4.42238E-11
8315.3	4.32575E-11
8325.21	4.23127E-11
8335.12	4.13898E-11
8345.03	4.04886E-11
8354.94	3.96083E-11
8364.85	3.87483E-11
8374.76	3.7908E-11
8384.67	3.70873E-11
8394.58	3.62857E-11
8404.49	3.55024E-11
8414.4	3.47372E-11
8424.31	3.39897E-11
8434.22	3.32592E-11
8444.13	3.25455E-11
8454.04	3.18469E-11
8463.95	3.1164E-11
8473.86	3.04968E-11
8483.77	2.98448E-11
8493.68	2.92077E-11
8503.59	2.85848E-11
8513.5	2.79763E-11
8523.41	2.73817E-11
8533.32	2.68004E-11
8543.23	2.62324E-11
8553.14	2.56772E-11
8563.05	2.51344E-11
8572.96	2.4604E-11
8582.87	2.40853E-11
8592.78	2.35773E-11
8602.69	2.30808E-11
8612.6	2.25954E-11
8622.51	2.21208E-11
8632.42	2.16568E-11
8642.33	2.12032E-11
8652.24	2.07598E-11
8662.15	2.03263E-11
8672.06	1.99023E-11
8681.97	1.94878E-11
8691.88	1.90826E-11
8701.79	1.86862E-11
8711.7	1.82987E-11
8721.61	1.79196E-11
8731.52	1.75481E-11
8741.43	1.71849E-11
8751.34	1.68296E-11
8761.25	1.64821E-11
8771.16	1.61422E-11
8781.07	1.58099E-11
8790.98	1.54849E-11
8800.89	1.5167E-11
8810.8	1.4856E-11
8820.71	1.45518E-11
8830.62	1.42542E-11
8840.53	1.39632E-11
8850.44	1.36784E-11
8860.35	1.33999E-11
8870.26	1.31268E-11
8880.17	1.28596E-11
8890.08	1.25981E-11
8899.99	1.23423E-11
8909.9	1.20921E-11
8919.81	1.18472E-11
8929.72	1.16076E-11
8939.63	1.13732E-11
8949.54	1.11438E-11
8959.45	1.09194E-11
8969.36	1.06997E-11
8979.27	1.04848E-11
8989.18	1.02745E-11
8999.09	1.00686E-11
9009	9.86695E-12
9018.91	9.66923E-12
9028.82	9.47574E-12
9038.73	9.28643E-12
9048.64	9.10109E-12
9058.55	8.91968E-12
9068.46	8.74217E-12
9078.37	8.56835E-12
9088.28	8.39824E-12
9098.19	8.23176E-12
9108.1	8.06874E-12
9118.01	7.9092E-12
9127.92	7.75298E-12
9137.83	7.60009E-12
9147.74	7.45036E-12
9157.65	7.30351E-12
9167.56	7.15962E-12
9177.47	7.01871E-12
9187.38	6.88079E-12
9197.29	6.74571E-12
9207.2	6.61344E-12
9217.11	6.484E-12
9227.02	6.35722E-12
9236.93	6.23306E-12
9246.84	6.11148E-12
9256.75	5.99245E-12
9266.66	5.87586E-12
9276.57	5.76169E-12
9286.48	5.64991E-12
9296.39	5.54041E-12
9306.3	5.43291E-12
9316.21	5.32754E-12
9326.12	5.22433E-12
9336.03	5.12325E-12
9345.94	5.02425E-12
9355.85	4.92729E-12
9365.76	4.83233E-12
9375.67	4.73932E-12
9385.58	4.64817E-12
9395.49	4.55893E-12
9405.4	4.47149E-12
9415.31	4.38585E-12
9425.22	4.30197E-12
9435.13	4.21974E-12
9445.04	4.13923E-12
9454.95	4.06017E-12
9464.86	3.98259E-12
9474.77	3.9066E-12
9484.68	3.83212E-12
9494.59	3.75917E-12
9504.5	3.68767E-12
9514.41	3.61765E-12
9524.32	3.54904E-12
9534.23	3.4818E-12
9544.14	3.41592E-12
9554.05	3.35136E-12
9563.96	3.28809E-12
9573.87	3.22609E-12
9583.78	3.16535E-12
9593.69	3.10583E-12
9603.6	3.04746E-12
9613.51	2.99005E-12
9623.42	2.93375E-12
9633.33	2.87863E-12
9643.24	2.82457E-12
9653.15	2.77163E-12
9663.06	2.71972E-12
9672.97	2.66884E-12
9682.88	2.61896E-12
9692.79	2.5701E-12
9702.7	2.52219E-12
9712.61	2.47524E-12
9722.52	2.42922E-12
9732.43	2.3841E-12
9742.34	2.33987E-12
9752.25	2.29652E-12
9762.16	2.25392E-12
9772.07	2.21204E-12
9781.98	2.17101E-12
9791.89	2.13077E-12
9801.8	2.09134E-12
9811.71	2.05267E-12
9821.62	2.01475E-12
9831.53	1.9776E-12
9841.44	1.94116E-12
9851.35	1.90545E-12
9861.26	1.87042E-12
9871.17	1.83607E-12
9881.08	1.80241E-12
9890.99	1.76939E-12
9900.9	1.73702E-12
9910.81	1.70527E-12
9920.72	1.67405E-12
9930.63	1.64335E-12
9940.54	1.61326E-12
9950.45	1.58374E-12
9960.36	1.5548E-12
9970.27	1.52642E-12
9980.18	1.49859E-12
9990.09	1.47129E-12
10000	1.44453E-12